Num_concurrent_jobs, job_median_run_time (sec)
1, 21.18
2, 21.61
3, 21.53
4, 21.72
5, 21.67
6, 21.7
7, 21.81
8, 21.88
9, 21.83
10, 21.93
11, 21.97
12, 21.98
13, 21.99
14, 22.09
15, 22.14
16, 22.23
17, 22.93
18, 23.89
19, 24.78
20, 25.38
21, 26.02
22, 26.63
23, 27.1
24, 28.0
25, 28.35
26, 28.89
27, 29.55
28, 30.04
29, 30.58
30, 31.15
31, 31.63
32, 31.76
33, 32.01
34, 33.14
35, 34.1
36, 35.54
37, 35.97
38, 36.45
39, 38.15
40, 38.5

